# Mead power spectrum in the form
# P_\delta(k) = k^3/(2pi^2) \Delta(k)
# columns:
# 1: k in h Mpc^{-1}
# 2: \Delta(k)
#
        0.0009999999        0.0000000780
        0.0010115913        0.0000000817
        0.0010233164        0.0000000855
        0.0010351781        0.0000000895
        0.0010471767        0.0000000937
        0.0010593148        0.0000000981
        0.0010715933        0.0000001027
        0.0010840144        0.0000001075
        0.0010965791        0.0000001126
        0.0011092899        0.0000001178
        0.0011221475        0.0000001233
        0.0011351547        0.0000001291
        0.0011483121        0.0000001352
        0.0011616226        0.0000001415
        0.0011750868        0.0000001481
        0.0011887077        0.0000001550
        0.0012024858        0.0000001623
        0.0012164243        0.0000001699
        0.0012305237        0.0000001778
        0.0012447870        0.0000001862
        0.0012592152        0.0000001949
        0.0012738112        0.0000002040
        0.0012885764        0.0000002135
        0.0013035121        0.0000002235
        0.0013186216        0.0000002339
        0.0013339055        0.0000002449
        0.0013493673        0.0000002563
        0.0013650076        0.0000002683
        0.0013808298        0.0000002808
        0.0013968349        0.0000002939
        0.0014130260        0.0000003077
        0.0014294042        0.0000003220
        0.0014459729        0.0000003371
        0.0014627330        0.0000003528
        0.0014796881        0.0000003693
        0.0014968389        0.0000003865
        0.0015141893        0.0000004045
        0.0015317401        0.0000004234
        0.0015494950        0.0000004432
        0.0015674550        0.0000004638
        0.0015856238        0.0000004855
        0.0016040026        0.0000005081
        0.0016225951        0.0000005318
        0.0016414032        0.0000005566
        0.0016604285        0.0000005825
        0.0016796751        0.0000006096
        0.0016991439        0.0000006380
        0.0017188393        0.0000006677
        0.0017387621        0.0000006988
        0.0017589168        0.0000007314
        0.0017793041        0.0000007654
        0.0017999286        0.0000008010
        0.0018207913        0.0000008383
        0.0018418968        0.0000008773
        0.0018632459        0.0000009181
        0.0018848435        0.0000009607
        0.0019066904        0.0000010054
        0.0019287915        0.0000010521
        0.0019511478        0.0000011010
        0.0019737643        0.0000011521
        0.0019966420        0.0000012056
        0.0020197856        0.0000012616
        0.0020431976        0.0000013202
        0.0020668800        0.0000013814
        0.0020908380        0.0000014455
        0.0021150727        0.0000015125
        0.0021395891        0.0000015827
        0.0021643888        0.0000016560
        0.0021894770        0.0000017328
        0.0022148548        0.0000018131
        0.0022405281        0.0000018970
        0.0022664978        0.0000019849
        0.0022927695        0.0000020767
        0.0023193446        0.0000021728
        0.0023462290        0.0000022734
        0.0023734237        0.0000023785
        0.0024009349        0.0000024885
        0.0024287638        0.0000026035
        0.0024569165        0.0000027238
        0.0024853942        0.0000028496
        0.0025142033        0.0000029812
        0.0025433463        0.0000031188
        0.0025728259        0.0000032627
        0.0026026471        0.0000034131
        0.0026328154        0.0000035705
        0.0026633332        0.0000037351
        0.0026942035        0.0000039072
        0.0027254329        0.0000040872
        0.0027570231        0.0000042753
        0.0027889805        0.0000044721
        0.0028213074        0.0000046778
        0.0028540101        0.0000048929
        0.0028870904        0.0000051179
        0.0029205556        0.0000053530
        0.0029544074        0.0000055989
        0.0029886530        0.0000058559
        0.0030232954        0.0000061246
        0.0030583381        0.0000064056
        0.0030937868        0.0000066992
        0.0031296480        0.0000070062
        0.0031659249        0.0000073272
        0.0032026207        0.0000076626
        0.0032397418        0.0000080133
        0.0032772948        0.0000083798
        0.0033152830        0.0000087630
        0.0033537098        0.0000091633
        0.0033925823        0.0000095818
        0.0034319069        0.0000100192
        0.0034716872        0.0000104763
        0.0035119271        0.0000109540
        0.0035526352        0.0000114532
        0.0035938132        0.0000119749
        0.0036354703        0.0000125200
        0.0036776084        0.0000130896
        0.0037202369        0.0000136848
        0.0037633576        0.0000143066
        0.0038069801        0.0000149563
        0.0038511062        0.0000156351
        0.0038957458        0.0000163443
        0.0039409027        0.0000170851
        0.0039865812        0.0000178591
        0.0040327888        0.0000186675
        0.0040795347        0.0000195120
        0.0041268216        0.0000203941
        0.0041746553        0.0000213155
        0.0042230431        0.0000222777
        0.0042719939        0.0000232828
        0.0043215118        0.0000243324
        0.0043716021        0.0000254285
        0.0044222744        0.0000265731
        0.0044735326        0.0000277684
        0.0045253867        0.0000290164
        0.0045778397        0.0000303195
        0.0046309032        0.0000316800
        0.0046845796        0.0000331005
        0.0047388799        0.0000345834
        0.0047938079        0.0000361315
        0.0048493743        0.0000377474
        0.0049055852        0.0000394344
        0.0049624452        0.0000411949
        0.0050199642        0.0000430325
        0.0050781523        0.0000449504
        0.0051370123        0.0000469518
        0.0051965574        0.0000490405
        0.0052567897        0.0000512200
        0.0053177229        0.0000534943
        0.0053793625        0.0000558672
        0.0054417141        0.0000583429
        0.0055047907        0.0000609258
        0.0055685961        0.0000636202
        0.0056331437        0.0000664309
        0.0056984364        0.0000693626
        0.0057644891        0.0000724205
        0.0058313045        0.0000756098
        0.0058988971        0.0000789359
        0.0059672706        0.0000824045
        0.0060364390        0.0000860214
        0.0061064092        0.0000897930
        0.0061771879        0.0000937249
        0.0062487870        0.0000978244
        0.0063212188        0.0001020982
        0.0063944869        0.0001065533
        0.0064686076        0.0001111971
        0.0065435846        0.0001160373
        0.0066194334        0.0001210819
        0.0066961613        0.0001263391
        0.0067737759        0.0001318173
        0.0068522929        0.0001375257
        0.0069317170        0.0001434735
        0.0070120650        0.0001496700
        0.0070933406        0.0001561255
        0.0071755587        0.0001628499
        0.0072587328        0.0001698547
        0.0073428713        0.0001771500
        0.0074279816        0.0001847479
        0.0075140819        0.0001926603
        0.0076011801        0.0002009001
        0.0076892846        0.0002094781
        0.0077784099        0.0002184099
        0.0078685721        0.0002277081
        0.0079597794        0.0002373878
        0.0080520399        0.0002474623
        0.0081453705        0.0002579480
        0.0082397861        0.0002688613
        0.0083352961        0.0002802178
        0.0084319096        0.0002920345
        0.0085296426        0.0003043287
        0.0086285127        0.0003171206
        0.0087285284        0.0003304269
        0.0088296998        0.0003442678
        0.0089320475        0.0003586639
        0.0090355817        0.0003736363
        0.0091403127        0.0003892056
        0.0092462562        0.0004053951
        0.0093534281        0.0004222276
        0.0094618471        0.0004397279
        0.0095715225        0.0004579203
        0.0096824644        0.0004768303
        0.0097946981        0.0004964840
        0.0099082310        0.0005169106
        0.0100230761        0.0005381352
        0.0101392521        0.0005601898
        0.0102567803        0.0005831048
        0.0103756702        0.0006069102
        0.0104959328        0.0006316382
        0.0106175896        0.0006573227
        0.0107406620        0.0006839982
        0.0108651603        0.0007117008
        0.0109910965        0.0007404658
        0.0111184986        0.0007703335
        0.0112473769        0.0008013409
        0.0113777434        0.0008335281
        0.0115096215        0.0008669376
        0.0116430279        0.0009016139
        0.0117779858        0.0009375993
        0.0119145084        0.0009749432
        0.0120526077        0.0010136882
        0.0121923145        0.0010538853
        0.0123336390        0.0010955861
        0.0124765970        0.0011388393
        0.0126212109        0.0011836981
        0.0127675077        0.0012302239
        0.0129155004        0.0012784678
        0.0130652022        0.0013284881
        0.0132166389        0.0013803475
        0.0133698378        0.0014341102
        0.0135248126        0.0014898353
        0.0136815766        0.0015475922
        0.0138401641        0.0016074495
        0.0140005834        0.0016694728
        0.0141628692        0.0017337382
        0.0143270288        0.0018003178
        0.0144930920        0.0018692882
        0.0146610858        0.0019407311
        0.0148310279        0.0020147271
        0.0150029324        0.0020913528
        0.0151768290        0.0021707022
        0.0153527558        0.0022528640
        0.0155307082        0.0023379223
        0.0157107227        0.0024259686
        0.0158928297        0.0025171123
        0.0160770491        0.0026114427
        0.0162633974        0.0027090602
        0.0164519027        0.0028100677
        0.0166426022        0.0029145826
        0.0168355126        0.0030227122
        0.0170306507        0.0031345633
        0.0172280502        0.0032502552
        0.0174277481        0.0033699153
        0.0176297575        0.0034936576
        0.0178341027        0.0036216106
        0.0180408154        0.0037539075
        0.0182499327        0.0038906783
        0.0184614696        0.0040320666
        0.0186754577        0.0041782050
        0.0188919269        0.0043292362
        0.0191109087        0.0044853264
        0.0193324257        0.0046466039
        0.0195565093        0.0048132427
        0.0197831914        0.0049853981
        0.0200124998        0.0051632323
        0.0202444680        0.0053469180
        0.0204791240        0.0055366228
        0.0207164995        0.0057325256
        0.0209566262        0.0059348140
        0.0211995412        0.0061436775
        0.0214452613        0.0063592931
        0.0216938369        0.0065818713
        0.0219452921        0.0068116044
        0.0221996624        0.0070487019
        0.0224569812        0.0072933808
        0.0227172822        0.0075458544
        0.0229806006        0.0078063421
        0.0232469700        0.0080750687
        0.0235164277        0.0083522759
        0.0237890147        0.0086381948
        0.0240647569        0.0089330738
        0.0243436936        0.0092371628
        0.0246258639        0.0095507093
        0.0249113049        0.0098739769
        0.0252000540        0.0102072516
        0.0254921503        0.0105507821
        0.0257876329        0.0109048625
        0.0260865390        0.0112697883
        0.0263889041        0.0116458256
        0.0266947877        0.0120332958
        0.0270042084        0.0124325091
        0.0273172185        0.0128437644
        0.0276338551        0.0132673746
        0.0279541612        0.0137036880
        0.0282781813        0.0141530279
        0.0286059566        0.0146157518
        0.0289375298        0.0150921745
        0.0292729493        0.0155826844
        0.0296122618        0.0160876196
        0.0299555007        0.0166073777
        0.0303027164        0.0171423052
        0.0306539591        0.0176928248
        0.0310092717        0.0182593074
        0.0313687027        0.0188421365
        0.0317323022        0.0194417741
        0.0321001150        0.0200585965
        0.0324721821        0.0206930172
        0.0328485705        0.0213455409
        0.0332293287        0.0220165532
        0.0336144939        0.0227065012
        0.0340041220        0.0234158579
        0.0343982689        0.0241451133
        0.0347969830        0.0248947032
        0.0352003165        0.0256651342
        0.0356083289        0.0264569018
        0.0360210687        0.0272705238
        0.0364385918        0.0281064641
        0.0368609540        0.0289652832
        0.0372882225        0.0298475139
        0.0377204344        0.0307536777
        0.0381576568        0.0316843167
        0.0385999456        0.0326399840
        0.0390473604        0.0336212181
        0.0394999608        0.0346286781
        0.0399577990        0.0356628746
        0.0404209569        0.0367244147
        0.0408894792        0.0378139503
        0.0413634330        0.0389320478
        0.0418428890        0.0400793143
        0.0423278958        0.0412564240
        0.0428185239        0.0424639545
        0.0433148369        0.0437025763
        0.0438169017        0.0449729674
        0.0443247892        0.0462758131
        0.0448385626        0.0476116948
        0.0453582928        0.0489814319
        0.0458840430        0.0503856242
        0.0464159027        0.0518250428
        0.0469539128        0.0533002876
        0.0474981591        0.0548121743
        0.0480487160        0.0563614294
        0.0486056544        0.0579487644
        0.0491690449        0.0595749952
        0.0497389585        0.0612407811
        0.0503154881        0.0629469827
        0.0508987010        0.0646943152
        0.0514886715        0.0664835945
        0.0520854928        0.0683156401
        0.0526892208        0.0701912567
        0.0532999486        0.0721112341
        0.0539177544        0.0740763769
        0.0545427203        0.0760875717
        0.0551749431        0.0781457126
        0.0558144674        0.0802514702
        0.0564614311        0.0824059620
        0.0571158677        0.0846098512
        0.0577779189        0.0868641287
        0.0584476143        0.0891696811
        0.0591250993        0.0915274471
        0.0598104112        0.0939382538
        0.0605036654        0.0964030549
        0.0612050146        0.0989229903
        0.0619144328        0.1014986783
        0.0626321062        0.1041313335
        0.0633580610        0.1068217680
        0.0640924722        0.1095710546
        0.0648353547        0.1123800948
        0.0655868873        0.1152500585
        0.0663470924        0.1181817576
        0.0671161413        0.1211765483
        0.0678940788        0.1242349520
        0.0686810315        0.1273584664
        0.0694771335        0.1305481493
        0.0702824369        0.1338048130
        0.0710970983        0.1371298432
        0.0719211772        0.1405240297
        0.0727548376        0.1439888626
        0.0735981315        0.1475252062
        0.0744512305        0.1511344314
        0.0753141865        0.1548174471
        0.0761872157        0.1585759372
        0.0770702884        0.1624104381
        0.0779636428        0.1663226336
        0.0788673088        0.1703135222
        0.0797814801        0.1743847281
        0.0807062164        0.1785369217
        0.0816417113        0.1827721298
        0.0825880095        0.1870909184
        0.0835453197        0.1914954334
        0.0845136791        0.1959862560
        0.0854932666        0.2005653232
        0.0864842460        0.2052339613
        0.0874866694        0.2099933475
        0.0885007605        0.2148452997
        0.0895265639        0.2197909653
        0.0905642956        0.2248320580
        0.0916140154        0.2299699485
        0.0926759392        0.2352064997
        0.0937501341        0.2405429035
        0.0948368236        0.2459812760
        0.0959361121        0.2515228987
        0.0970481411        0.2571696639
        0.0981730074        0.2629228532
        0.0993109643        0.2687849104
        0.1004620641        0.2747566998
        0.1016265601        0.2808411419
        0.1028044969        0.2870392203
        0.1039960906        0.2933530807
        0.1052015424        0.2997847497
        0.1064209193        0.3063359857
        0.1076544821        0.3130094409
        0.1089022905        0.3198061585
        0.1101646125        0.3267289102
        0.1114415154        0.3337792754
        0.1127332747        0.3409605324
        0.1140399501        0.3482732475
        0.1153618246        0.3557206690
        0.1166989654        0.3633050323
        0.1180516630        0.3710286915
        0.1194200441        0.3788935542
        0.1208042800        0.3869026005
        0.1222045049        0.3950578868
        0.1236210167        0.4033623636
        0.1250538975        0.4118177295
        0.1265034378        0.4204273224
        0.1279697269        0.4291935861
        0.1294530034        0.4381190836
        0.1309535354        0.4472070336
        0.1324713975        0.4564594626
        0.1340069175        0.4658801854
        0.1355601698        0.4754711688
        0.1371314973        0.4852360189
        0.1387209743        0.4951770902
        0.1403289288        0.5052980185
        0.1419554651        0.5156014562
        0.1436009258        0.5260910392
        0.1452653706        0.5367695689
        0.1469492018        0.5476408005
        0.1486525387        0.5587073565
        0.1503756195        0.5699732304
        0.1521186084        0.5814413428
        0.1538818628        0.5931155086
        0.1556654871        0.6049988866
        0.1574697793        0.6170956492
        0.1592950672        0.6294095516
        0.1611414403        0.6419438720
        0.1630092859        0.6547030210
        0.1648986936        0.6676904559
        0.1668100953        0.6809108257
        0.1687435657        0.6943671107
        0.1706995368        0.7080646157
        0.1726780832        0.7220065594
        0.1746796519        0.7361984849
        0.1767043471        0.7506443262
        0.1787525862        0.7653486729
        0.1808244735        0.7803154588
        0.1829204708        0.7955513000
        0.1850406826        0.8110588193
        0.1871856451        0.8268461823
        0.1893552840        0.8429153562
        0.1915501654        0.8592745066
        0.1937703937        0.8759263754
        0.1960163713        0.8928782940
        0.1982884556        0.9101373553
        0.2005867958        0.9277070165
        0.2029118538        0.9455956817
        0.2052637786        0.9638087153
        0.2076430619        0.9823530912
        0.2100498229        1.0012353659
        0.2124845833        1.0204644203
        0.2149474621        1.0400457382
        0.2174389958        1.0599877834
        0.2199593037        1.0802981853
        0.2225089222        1.1009864807
        0.2250880003        1.1220588684
        0.2276970595        1.1435265541
        0.2303362787        1.1653969288
